Rank	Latitude	Longitude
1	12.92926	77.63502
2	12.92919	77.63499
3	12.92911	77.63494
4	12.92904	77.63488
5	12.92894	77.63485
6	12.92886	77.63481
7	12.92880	77.63479
8	12.92872	77.63475
9	12.92863	77.63471
10	12.92857	77.63469
11	12.92852	77.63468
12	12.92846	77.63467
13	12.92839	77.63466
14	12.92834	77.63458
15	12.92834	77.63452
16	12.92835	77.63446
17	12.92837	77.63439
18	12.92847	77.63429
19	12.92853	77.63427
20	12.92861	77.63425
21	12.92867	77.63425
22	12.92875	77.63425
23	12.92884	77.63424
24	12.92889	77.63424
25	12.92897	77.63423
26	12.92903	77.63423
27	12.92910	77.63421
28	12.92917	77.63420
29	12.92926	77.63418
30	12.92932	77.63415
31	12.92938	77.63413
32	12.92946	77.63411
33	12.92951	77.63407
34	12.92957	77.63405
35	12.92964	77.63403
36	12.92972	77.63402
37	12.92980	77.63400
38	12.92987	77.63397
39	12.92992	77.63394
40	12.92999	77.63384
41	12.93008	77.63376
42	12.93013	77.63372
43	12.93018	77.63367
44	12.93024	77.63363
45	12.93033	77.63355
46	12.93042	77.63347
47	12.93053	77.63338
48	12.93062	77.63330
49	12.93071	77.63321
50	12.93076	77.63315
51	12.93081	77.63308
52	12.93086	77.63303
53	12.93090	77.63297
54	12.93097	77.63289
55	12.93106	77.63279
56	12.93110	77.63273
57	12.93117	77.63264
58	12.93120	77.63259
59	12.93130	77.63249
60	12.93135	77.63245
61	12.93140	77.63241
62	12.93146	77.63236
63	12.93153	77.63228
64	12.93157	77.63222
65	12.93161	77.63217
66	12.93166	77.63211
67	12.93173	77.63203
68	12.93178	77.63200
69	12.93186	77.63190
70	12.93194	77.63182
71	12.93198	77.63176
72	12.93202	77.63171
73	12.93208	77.63168
74	12.93218	77.63159
75	12.93228	77.63150
76	12.93233	77.63146
77	12.93237	77.63141
78	12.93243	77.63138
79	12.93249	77.63133
80	12.93254	77.63128
81	12.93259	77.63125
82	12.93269	77.63117
83	12.93277	77.63109
84	12.93288	77.63100
85	12.93296	77.63090
86	12.93300	77.63085
87	12.93309	77.63075
88	12.93317	77.63066
89	12.93322	77.63058
90	12.93326	77.63053
91	12.93332	77.63047
92	12.93341	77.63039
93	12.93349	77.63030
94	12.93356	77.63025
95	12.93360	77.63020
96	12.93368	77.63011
97	12.93372	77.63006
98	12.93377	77.62999
99	12.93388	77.62991
100	12.93393	77.62985
101	12.93398	77.62981
102	12.93403	77.62978
103	12.93409	77.62973
104	12.93419	77.62965
105	12.93428	77.62956
106	12.93438	77.62947
107	12.93447	77.62938
108	12.93452	77.62935
109	12.93456	77.62929
110	12.93460	77.62924
111	12.93466	77.62918
112	12.93474	77.62907
113	12.93481	77.62899
114	12.93486	77.62893
115	12.93492	77.62885
116	12.93501	77.62878
117	12.93510	77.62870
118	12.93516	77.62865
119	12.93521	77.62861
120	12.93530	77.62853
121	12.93538	77.62845
122	12.93542	77.62839
123	12.93547	77.62834
124	12.93552	77.62830
125	12.93557	77.62824
126	12.93562	77.62820
127	12.93572	77.62811
128	12.93577	77.62807
129	12.93582	77.62804
130	12.93592	77.62800
131	12.93601	77.62792
132	12.93607	77.62788
133	12.93616	77.62780
134	12.93621	77.62776
135	12.93632	77.62767
136	12.93638	77.62764
137	12.93643	77.62760
138	12.93653	77.62756
139	12.93658	77.62752
140	12.93664	77.62749
141	12.93671	77.62746
142	12.93680	77.62742
143	12.93690	77.62736
144	12.93697	77.62733
145	12.93702	77.62730
146	12.93709	77.62728
147	12.93715	77.62723
148	12.93721	77.62720
149	12.93729	77.62716
150	12.93735	77.62713
151	12.93743	77.62708
152	12.93750	77.62704
153	12.93758	77.62701
154	12.93763	77.62698
155	12.93769	77.62694
156	12.93778	77.62689
157	12.93790	77.62685
158	12.93795	77.62682
159	12.93800	77.62678
160	12.93810	77.62673
161	12.93816	77.62671
162	12.93822	77.62668
163	12.93829	77.62663
164	12.93835	77.62660
165	12.93841	77.62656
166	12.93853	77.62646
167	12.93858	77.62642
168	12.93863	77.62638
169	12.93869	77.62634
170	12.93875	77.62630
171	12.93880	77.62626
172	12.93885	77.62621
173	12.93891	77.62618
174	12.93896	77.62614
175	12.93905	77.62606
176	12.93911	77.62602
177	12.93916	77.62598
178	12.93921	77.62595
179	12.93932	77.62587
180	12.93937	77.62582
181	12.93942	77.62577
182	12.93948	77.62573
183	12.93956	77.62565
184	12.93960	77.62559
185	12.93964	77.62554
186	12.93970	77.62549
187	12.93974	77.62542
188	12.93982	77.62533
189	12.93988	77.62529
190	12.93992	77.62524
191	12.94000	77.62515
192	12.94004	77.62509
193	12.94009	77.62503
194	12.94013	77.62497
195	12.94022	77.62486
196	12.94030	77.62479
197	12.94038	77.62470
198	12.94041	77.62465
199	12.94046	77.62459
200	12.94051	77.62454
201	12.94060	77.62445
202	12.94065	77.62440
203	12.94070	77.62435
204	12.94075	77.62432
205	12.94079	77.62426
206	12.94086	77.62419
207	12.94090	77.62413
208	12.94098	77.62405
209	12.94101	77.62399
210	12.94104	77.62394
211	12.94109	77.62389
212	12.94116	77.62381
213	12.94120	77.62376
214	12.94125	77.62369
215	12.94130	77.62364
216	12.94138	77.62355
217	12.94142	77.62349
218	12.94148	77.62345
219	12.94156	77.62335
220	12.94160	77.62330
221	12.94169	77.62320
222	12.94173	77.62315
223	12.94177	77.62309
224	12.94181	77.62304
225	12.94186	77.62297
226	12.94194	77.62288
227	12.94198	77.62282
228	12.94205	77.62273
229	12.94210	77.62267
230	12.94213	77.62261
231	12.94217	77.62256
232	12.94221	77.62250
233	12.94230	77.62241
234	12.94235	77.62236
235	12.94245	77.62228
236	12.94254	77.62219
237	12.94259	77.62215
238	12.94263	77.62209
239	12.94272	77.62200
240	12.94276	77.62194
241	12.94280	77.62189
242	12.94289	77.62179
243	12.94292	77.62174
244	12.94297	77.62168
245	12.94301	77.62161
246	12.94306	77.62155
247	12.94315	77.62145
248	12.94318	77.62140
249	12.94322	77.62134
250	12.94327	77.62127
251	12.94332	77.62121
252	12.94336	77.62116
253	12.94339	77.62111
254	12.94343	77.62103
255	12.94352	77.62094
256	12.94357	77.62086
257	12.94361	77.62081
258	12.94365	77.62075
259	12.94374	77.62065
260	12.94378	77.62058
261	12.94381	77.62052
262	12.94386	77.62046
263	12.94391	77.62040
264	12.94384	77.62035
265	12.94376	77.62031
266	12.94369	77.62028
267	12.94362	77.62025
268	12.94355	77.62022
269	12.94349	77.62020
270	12.94344	77.62019
271	12.94337	77.62017
272	12.94330	77.62015
273	12.94325	77.62013
274	12.94320	77.62012
275	12.94312	77.62010
276	12.94305	77.62008
277	12.94297	77.62006
278	12.94292	77.62005
279	12.94286	77.62003
280	12.94281	77.62002
281	12.94274	77.61999
282	12.94268	77.61998
283	12.94263	77.61997
284	12.94256	77.61996
285	12.94251	77.61995
286	12.94245	77.61994
287	12.94240	77.61993
288	12.94232	77.61990
289	12.94224	77.61988
290	12.94218	77.61987
291	12.94213	77.61986
292	12.94207	77.61983
293	12.94207	77.61977
294	12.94207	77.61971
295	12.94207	77.61964
296	12.94207	77.61957
297	12.94208	77.61950
298	12.94208	77.61943
299	12.94208	77.61937
300	12.94209	77.61930
301	12.94211	77.61924
302	12.94211	77.61917
303	12.94210	77.61911
304	12.94210	77.61905
305	12.94211	77.61898
306	12.94211	77.61892
307	12.94211	77.61885
308	12.94213	77.61879
309	12.94214	77.61873
310	12.94208	77.61872
311	12.94200	77.61871
312	12.94195	77.61869
313	12.94190	77.61868
314	12.94182	77.61864
315	12.94174	77.61862
316	12.94169	77.61861
317	12.94162	77.61857
318	12.94155	77.61857
319	12.94149	77.61857
320	12.94143	77.61857
321	12.94137	77.61857
322	12.94131	77.61856
323	12.94124	77.61856
324	12.94118	77.61856
325	12.94113	77.61856
326	12.94106	77.61854
327	12.94100	77.61853
328	12.94094	77.61852
329	12.94089	77.61852
330	12.94083	77.61852
331	12.94076	77.61852
332	12.94070	77.61852
333	12.94064	77.61852
334	12.94058	77.61851
335	12.94052	77.61850
336	12.94046	77.61850
337	12.94040	77.61849
338	12.94034	77.61849
339	12.94028	77.61848
340	12.94022	77.61847
341	12.94014	77.61847
342	12.94007	77.61847
343	12.94001	77.61846
344	12.93994	77.61843
345	12.93989	77.61843
346	12.93983	77.61841
347	12.93978	77.61840
348	12.93972	77.61839
349	12.93966	77.61840
350	12.93966	77.61846
351	12.93967	77.61853
352	12.93967	77.61859
353	12.93967	77.61867
354	12.93967	77.61872
355	12.93968	77.61879
356	12.93969	77.61885
357	12.93969	77.61892
358	12.93969	77.61898
359	12.93969	77.61905
360	12.93968	77.61913
361	12.93967	77.61918
362	12.93965	77.61923
363	12.93963	77.61930
364	12.93960	77.61938
365	12.93957	77.61945
366	12.93956	77.61951
367	12.93950	77.61950
368	12.93942	77.61947
369	12.93936	77.61944
370	12.93931	77.61943
371	12.93924	77.61939
372	12.93918	77.61938
373	12.93912	77.61937
374	12.93906	77.61936
375	12.93899	77.61933
376	12.93893	77.61931
377	12.93887	77.61930
378	12.93882	77.61929
379	12.93876	77.61928
380	12.93871	77.61927
381	12.93864	77.61926
382	12.93858	77.61925
383	12.93852	77.61924
384	12.93846	77.61923
385	12.93841	77.61922
386	12.93835	77.61921
387	12.93829	77.61920
388	12.93822	77.61919
389	12.93816	77.61917
390	12.93811	77.61916
391	12.93804	77.61915
392	12.93798	77.61915
393	12.93793	77.61914
394	12.93788	77.61913
395	12.93782	77.61912
396	12.93775	77.61912
397	12.93769	77.61912
398	12.93762	77.61909
399	12.93754	77.61907
400	12.93749	77.61905
401	12.93742	77.61904
402	12.93736	77.61902
403	12.93730	77.61901
404	12.93725	77.61899
405	12.93720	77.61897
406	12.93712	77.61895
407	12.93706	77.61894
408	12.93700	77.61893
409	12.93693	77.61890
410	12.93687	77.61888
411	12.93680	77.61886
412	12.93672	77.61883
413	12.93666	77.61882
414	12.93661	77.61880
415	12.93655	77.61879
416	12.93650	77.61877
417	12.93644	77.61875
418	12.93636	77.61873
419	12.93631	77.61872
420	12.93625	77.61870
421	12.93620	77.61869
422	12.93614	77.61868
423	12.93609	77.61866
424	12.93602	77.61864
425	12.93596	77.61862
426	12.93591	77.61861
427	12.93585	77.61859
428	12.93579	77.61858
429	12.93573	77.61857
430	12.93568	77.61856
431	12.93562	77.61854
432	12.93557	77.61853
433	12.93551	77.61851
434	12.93544	77.61849
435	12.93539	77.61847
436	12.93533	77.61845
437	12.93527	77.61843
438	12.93521	77.61842
439	12.93515	77.61842
440	12.93510	77.61840
441	12.93504	77.61839
442	12.93499	77.61837
443	12.93494	77.61835
444	12.93489	77.61829
445	12.93487	77.61823
446	12.93487	77.61816
447	12.93487	77.61809
448	12.93487	77.61802
449	12.93487	77.61794
450	12.93487	77.61787
451	12.93487	77.61779
452	12.93487	77.61772
453	12.93487	77.61765
454	12.93487	77.61758
455	12.93487	77.61751
456	12.93487	77.61744
457	12.93485	77.61737
458	12.93483	77.61730
459	12.93482	77.61725
460	12.93480	77.61717
461	12.93479	77.61711
462	12.93478	77.61704
463	12.93477	77.61698
464	12.93472	77.61692
465	12.93469	77.61686
466	12.93467	77.61680
467	12.93463	77.61673
468	12.93459	77.61665
469	12.93457	77.61659
470	12.93453	77.61652
471	12.93450	77.61644
472	12.93448	77.61638
473	12.93445	77.61633
474	12.93444	77.61627
475	12.93442	77.61619
476	12.93438	77.61612
477	12.93434	77.61605
478	12.93431	77.61598
479	12.93429	77.61593
480	12.93426	77.61587
481	12.93423	77.61581
482	12.93420	77.61574
483	12.93416	77.61568
484	12.93413	77.61560
485	12.93409	77.61553
486	12.93406	77.61545
487	12.93402	77.61538
488	12.93397	77.61531
489	12.93394	77.61526
490	12.93389	77.61518
491	12.93387	77.61513
492	12.93383	77.61507
493	12.93381	77.61502
494	12.93377	77.61494
495	12.93373	77.61488
496	12.93371	77.61483
497	12.93368	77.61477
498	12.93365	77.61470
499	12.93362	77.61465
500	12.93359	77.61458
501	12.93357	77.61451
502	12.93355	77.61446
503	12.93351	77.61439
504	12.93348	77.61431
505	12.93344	77.61424
506	12.93341	77.61419
507	12.93337	77.61413
508	12.93333	77.61406
509	12.93330	77.61399
510	12.93327	77.61392
511	12.93323	77.61385
512	12.93321	77.61379
513	12.93318	77.61373
514	12.93315	77.61366
515	12.93312	77.61360
516	12.93309	77.61353
517	12.93301	77.61352
518	12.93295	77.61356
519	12.93290	77.61358
520	12.93282	77.61361
521	12.93276	77.61362
522	12.93269	77.61366
523	12.93263	77.61368
524	12.93257	77.61371
525	12.93251	77.61374
526	12.93245	77.61378
527	12.93239	77.61380
528	12.93233	77.61383
529	12.93228	77.61386
530	12.93221	77.61389
531	12.93215	77.61392
532	12.93209	77.61395
533	12.93202	77.61398
534	12.93197	77.61402
535	12.93192	77.61406
536	12.93187	77.61409
537	12.93181	77.61412
538	12.93175	77.61415
539	12.93170	77.61418
540	12.93165	77.61420
541	12.93158	77.61424
542	12.93150	77.61427
543	12.93144	77.61429
544	12.93139	77.61433
545	12.93132	77.61439
546	12.93127	77.61443
547	12.93121	77.61447
548	12.93115	77.61452
549	12.93108	77.61456
550	12.93102	77.61460
551	12.93096	77.61463
552	12.93089	77.61467
553	12.93082	77.61470
554	12.93077	77.61474
555	12.93071	77.61476
556	12.93063	77.61481
557	12.93057	77.61484
558	12.93050	77.61486
559	12.93045	77.61489
560	12.93039	77.61491
561	12.93031	77.61496
562	12.93023	77.61499
563	12.93018	77.61502
564	12.93012	77.61505
565	12.93007	77.61508
566	12.93001	77.61511
567	12.92995	77.61514
568	12.92987	77.61518
569	12.92981	77.61521
570	12.92974	77.61525
571	12.92968	77.61528
572	12.92961	77.61531
573	12.92956	77.61536
574	12.92950	77.61541
575	12.92945	77.61545
576	12.92938	77.61551
577	12.92930	77.61557
578	12.92923	77.61562
579	12.92918	77.61565
580	12.92912	77.61570
581	12.92906	77.61573
582	12.92899	77.61577
583	12.92892	77.61580
584	12.92885	77.61585
585	12.92879	77.61588
586	12.92874	77.61591
587	12.92867	77.61594
588	12.92860	77.61598
589	12.92855	77.61601
590	12.92849	77.61604
591	12.92844	77.61607
592	12.92836	77.61611
593	12.92829	77.61615
594	12.92821	77.61617
595	12.92814	77.61621
596	12.92807	77.61626
597	12.92801	77.61630
598	12.92796	77.61634
599	12.92790	77.61638
600	12.92785	77.61640
601	12.92778	77.61645
602	12.92773	77.61648
603	12.92767	77.61653
604	12.92761	77.61656
605	12.92754	77.61661
606	12.92748	77.61665
607	12.92741	77.61670
608	12.92735	77.61675
609	12.92729	77.61680
610	12.92723	77.61684
611	12.92717	77.61687
612	12.92711	77.61691
613	12.92705	77.61697
614	12.92699	77.61700
615	12.92694	77.61705
616	12.92688	77.61710
617	12.92681	77.61715
618	12.92676	77.61719
619	12.92670	77.61724
620	12.92663	77.61728
621	12.92656	77.61734
622	12.92650	77.61738
623	12.92645	77.61742
624	12.92639	77.61746
625	12.92634	77.61749
626	12.92627	77.61754
627	12.92622	77.61758
628	12.92616	77.61761
629	12.92608	77.61765
630	12.92602	77.61769
631	12.92597	77.61772
632	12.92589	77.61776
633	12.92584	77.61779
634	12.92579	77.61782
635	12.92572	77.61786
636	12.92566	77.61789
637	12.92559	77.61793
638	12.92552	77.61797
639	12.92546	77.61801
640	12.92539	77.61803
641	12.92534	77.61806
642	12.92526	77.61808
643	12.92519	77.61810
644	12.92513	77.61813
645	12.92507	77.61815
646	12.92502	77.61817
647	12.92495	77.61821
648	12.92490	77.61823
649	12.92484	77.61827
650	12.92477	77.61830
651	12.92469	77.61835
652	12.92464	77.61838
653	12.92458	77.61841
654	12.92453	77.61844
655	12.92445	77.61848
656	12.92439	77.61853
657	12.92433	77.61856
658	12.92427	77.61860
659	12.92421	77.61863
660	12.92414	77.61868
661	12.92408	77.61873
662	12.92403	77.61877
663	12.92396	77.61882
664	12.92390	77.61887
665	12.92384	77.61891
666	12.92378	77.61896
667	12.92371	77.61901
668	12.92365	77.61905
669	12.92360	77.61909
670	12.92354	77.61913
671	12.92347	77.61917
672	12.92340	77.61923
673	12.92334	77.61926
674	12.92329	77.61928
675	12.92324	77.61931
676	12.92316	77.61935
677	12.92308	77.61938
678	12.92299	77.61941
679	12.92293	77.61944
680	12.92287	77.61946
681	12.92279	77.61950
682	12.92273	77.61953
683	12.92266	77.61956
684	12.92259	77.61960
685	12.92254	77.61963
686	12.92247	77.61967
687	12.92240	77.61970
688	12.92233	77.61975
689	12.92227	77.61977
690	12.92220	77.61982
691	12.92215	77.61985
692	12.92209	77.61989
693	12.92201	77.61993
694	12.92193	77.61999
695	12.92186	77.62005
696	12.92179	77.62010
697	12.92172	77.62016
698	12.92166	77.62021
699	12.92159	77.62026
700	12.92153	77.62029
701	12.92147	77.62032
702	12.92139	77.62036
703	12.92134	77.62040
704	12.92127	77.62043
705	12.92121	77.62046
706	12.92115	77.62050
707	12.92108	77.62055
708	12.92103	77.62059
709	12.92097	77.62064
710	12.92091	77.62069
711	12.92085	77.62074
712	12.92079	77.62078
713	12.92073	77.62084
714	12.92067	77.62088
715	12.92061	77.62089
716	12.92053	77.62094
717	12.92047	77.62098
718	12.92041	77.62102
719	12.92035	77.62106
720	12.92027	77.62111
721	12.92022	77.62114
722	12.92016	77.62117
723	12.92010	77.62119
724	12.92005	77.62123
725	12.91999	77.62128
726	12.91992	77.62134
727	12.91986	77.62138
728	12.91979	77.62144
729	12.91973	77.62148
730	12.91968	77.62152
731	12.91970	77.62157
732	12.91976	77.62163
733	12.91983	77.62170
734	12.91988	77.62177
735	12.91993	77.62184
736	12.91998	77.62190
737	12.92003	77.62197
738	12.92006	77.62204
739	12.92009	77.62209
740	12.92012	77.62215
741	12.92015	77.62221
742	12.92019	77.62228
743	12.92023	77.62235
744	12.92026	77.62240
745	12.92030	77.62247
746	12.92035	77.62252
747	12.92040	77.62259
748	12.92045	77.62266
749	12.92049	77.62274
750	12.92055	77.62281
751	12.92059	77.62287
752	12.92064	77.62294
753	12.92069	77.62302
754	12.92074	77.62310
755	12.92077	77.62316
756	12.92081	77.62322
757	12.92085	77.62327
758	12.92090	77.62335
759	12.92095	77.62344
760	12.92098	77.62351
761	12.92101	77.62357
762	12.92106	77.62365
763	12.92109	77.62371
764	12.92113	77.62377
765	12.92117	77.62383
766	12.92123	77.62390
767	12.92128	77.62397
768	12.92131	77.62403
769	12.92134	77.62409
770	12.92136	77.62414
771	12.92138	77.62420
772	12.92139	77.62426
773	12.92141	77.62432
774	12.92143	77.62438
775	12.92145	77.62446
776	12.92148	77.62451
777	12.92150	77.62459
778	12.92151	77.62465
779	12.92151	77.62471
780	12.92154	77.62478
781	12.92156	77.62484
782	12.92157	77.62489
783	12.92159	77.62496
784	12.92160	77.62501
785	12.92162	77.62507
786	12.92164	77.62512
787	12.92166	77.62520
788	12.92167	77.62525
789	12.92169	77.62533
790	12.92170	77.62539
791	12.92172	77.62545
792	12.92174	77.62552
793	12.92175	77.62558
794	12.92177	77.62566
795	12.92177	77.62572
796	12.92179	77.62580
797	12.92181	77.62587
798	12.92184	77.62594
799	12.92186	77.62601
800	12.92187	77.62609
801	12.92188	77.62615
802	12.92188	77.62621
803	12.92190	77.62628
804	12.92191	77.62633
805	12.92192	77.62640
806	12.92192	77.62646
807	12.92193	77.62654
808	12.92195	77.62660
809	12.92196	77.62667
810	12.92198	77.62672
811	12.92198	77.62678
812	12.92199	77.62684
813	12.92201	77.62691
814	12.92201	77.62697
815	12.92202	77.62705
816	12.92204	77.62713
817	12.92206	77.62719
818	12.92207	77.62724
819	12.92209	77.62729
820	12.92210	77.62736
821	12.92212	77.62742
822	12.92213	77.62748
823	12.92214	77.62753
824	12.92216	77.62762
825	12.92218	77.62770
826	12.92219	77.62775
827	12.92221	77.62781
828	12.92222	77.62787
829	12.92224	77.62794
830	12.92225	77.62802
831	12.92226	77.62809
832	12.92227	77.62816
833	12.92228	77.62822
834	12.92229	77.62829
835	12.92229	77.62836
836	12.92230	77.62843
837	12.92232	77.62850
838	12.92234	77.62857
839	12.92235	77.62863
840	12.92238	77.62870
841	12.92240	77.62876
842	12.92242	77.62883
843	12.92244	77.62889
844	12.92246	77.62895
845	12.92247	77.62903
846	12.92249	77.62911
847	12.92251	77.62918
848	12.92253	77.62924
849	12.92255	77.62929
850	12.92257	77.62935
851	12.92260	77.62943
852	12.92262	77.62950
853	12.92264	77.62956
854	12.92265	77.62961
855	12.92266	77.62967
856	12.92269	77.62974
857	12.92271	77.62979
858	12.92273	77.62987
859	12.92274	77.62993
860	12.92275	77.63001
861	12.92275	77.63009
862	12.92275	77.63019
863	12.92275	77.63026
864	12.92274	77.63034
865	12.92274	77.63041
866	12.92274	77.63048
867	12.92274	77.63054
868	12.92274	77.63061
869	12.92273	77.63066
870	12.92272	77.63073
871	12.92272	77.63079
872	12.92274	77.63085
873	12.92275	77.63092
874	12.92276	77.63097
875	12.92277	77.63104
876	12.92277	77.63112
877	12.92278	77.63119
878	12.92280	77.63124
879	12.92282	77.63131
880	12.92283	77.63137
881	12.92285	77.63142
882	12.92286	77.63148
883	12.92288	77.63155
884	12.92289	77.63161
885	12.92291	77.63167
886	12.92292	77.63174
887	12.92294	77.63179
888	12.92295	77.63186
889	12.92297	77.63192
890	12.92298	77.63200
891	12.92300	77.63206
892	12.92301	77.63212
893	12.92301	77.63217
894	12.92302	77.63225
895	12.92304	77.63231
896	12.92304	77.63237
897	12.92306	77.63246
898	12.92308	77.63252
899	12.92309	77.63258
900	12.92309	77.63265
901	12.92309	77.63271
902	12.92311	77.63277
903	12.92312	77.63283
904	12.92313	77.63289
905	12.92314	77.63296
906	12.92316	77.63302
907	12.92317	77.63309
908	12.92317	77.63315
909	12.92318	77.63322
910	12.92319	77.63329
911	12.92319	77.63335
912	12.92319	77.63340
913	12.92320	77.63346
914	12.92321	77.63353
915	12.92322	77.63358
916	12.92322	77.63365
917	12.92324	77.63372
918	12.92326	77.63379
919	12.92328	77.63386
920	12.92330	77.63393
921	12.92331	77.63398
922	12.92333	77.63405
923	12.92335	77.63412
924	12.92336	77.63418
925	12.92336	77.63425
926	12.92337	77.63431
927	12.92338	77.63439
928	12.92340	77.63445
929	12.92341	77.63450
930	12.92342	77.63456
931	12.92344	77.63464
932	12.92346	77.63471
933	12.92348	77.63477
934	12.92349	77.63483
935	12.92351	77.63491
936	12.92352	77.63497
937	12.92354	77.63504
938	12.92354	77.63511
939	12.92355	77.63516
940	12.92356	77.63522
941	12.92357	77.63531
942	12.92358	77.63536
943	12.92358	77.63543
944	12.92359	77.63550
945	12.92360	77.63555
946	12.92360	77.63561
947	12.92361	77.63567
948	12.92362	77.63574
949	12.92363	77.63581
950	12.92364	77.63588
951	12.92366	77.63597
952	12.92366	77.63602
953	12.92366	77.63609
954	12.92367	77.63616
955	12.92368	77.63622
956	12.92369	77.63629
957	12.92371	77.63635
958	12.92373	77.63648
959	12.92374	77.63654
960	12.92375	77.63660
961	12.92376	77.63666
962	12.92378	77.63673
963	12.92379	77.63679
964	12.92380	77.63687
965	12.92380	77.63694
966	12.92382	77.63702
967	12.92384	77.63707
968	12.92384	77.63714
969	12.92384	77.63720
970	12.92384	77.63726
971	12.92384	77.63731
972	12.92384	77.63739
973	12.92384	77.63744
974	12.92385	77.63752
975	12.92385	77.63759
976	12.92385	77.63766
977	12.92386	77.63773
978	12.92387	77.63779
979	12.92389	77.63786
980	12.92389	77.63792
981	12.92389	77.63798
982	12.92389	77.63805
983	12.92388	77.63810
984	12.92386	77.63820
985	12.92384	77.63826
986	12.92381	77.63832
987	12.92378	77.63838
988	12.92374	77.63845
989	12.92372	77.63851
990	12.92368	77.63858
991	12.92363	77.63866
992	12.92358	77.63875
993	12.92357	77.63880
994	12.92355	77.63886
995	12.92352	77.63894
996	12.92349	77.63901
997	12.92346	77.63907
998	12.92342	77.63913
999	12.92337	77.63920
1000	12.92330	77.63928
1001	12.92325	77.63934
1002	12.92319	77.63942
1003	12.92318	77.63949
1004	12.92316	77.63955
1005	12.92312	77.63960
1006	12.92310	77.63967
1007	12.92306	77.63973
1008	12.92302	77.63979
1009	12.92299	77.63985
1010	12.92297	77.63990
1011	12.92294	77.63996
1012	12.92292	77.64002
1013	12.92289	77.64008
1014	12.92284	77.64012
1015	12.92281	77.64018
1016	12.92278	77.64024
1017	12.92272	77.64032
1018	12.92270	77.64037
1019	12.92267	77.64042
1020	12.92274	77.64046
1021	12.92280	77.64046
1022	12.92287	77.64048
1023	12.92293	77.64048
1024	12.92301	77.64048
1025	12.92311	77.64048
1026	12.92317	77.64048
1027	12.92323	77.64048
1028	12.92328	77.64046
1029	12.92335	77.64045
1030	12.92343	77.64044
1031	12.92351	77.64044
1032	12.92358	77.64042
1033	12.92364	77.64042
1034	12.92371	77.64042
1035	12.92377	77.64042
1036	12.92383	77.64042
1037	12.92392	77.64041
1038	12.92399	77.64041
1039	12.92405	77.64041
1040	12.92412	77.64041
1041	12.92418	77.64043
1042	12.92424	77.64045
1043	12.92432	77.64049
1044	12.92438	77.64053
1045	12.92444	77.64061
1046	12.92448	77.64067
1047	12.92453	77.64074
1048	12.92455	77.64080
1049	12.92456	77.64086
1050	12.92456	77.64094
1051	12.92456	77.64101
1052	12.92456	77.64107
1053	12.92456	77.64114
1054	12.92455	77.64120
1055	12.92455	77.64127
1056	12.92455	77.64135
1057	12.92455	77.64141
1058	12.92455	77.64147
1059	12.92455	77.64153
1060	12.92455	77.64158
1061	12.92455	77.64164
1062	12.92455	77.64171
1063	12.92455	77.64178
1064	12.92455	77.64185
1065	12.92456	77.64192
1066	12.92456	77.64198
1067	12.92457	77.64206
1068	12.92457	77.64212
1069	12.92458	77.64219
1070	12.92459	77.64225
1071	12.92461	77.64232
1072	12.92464	77.64237
1073	12.92466	77.64243
1074	12.92471	77.64250
1075	12.92479	77.64256
1076	12.92486	77.64258
1077	12.92492	77.64259
1078	12.92497	77.64262
1079	12.92505	77.64264
1080	12.92511	77.64265
1081	12.92516	77.64265
1082	12.92523	77.64266
1083	12.92529	77.64268
1084	12.92535	77.64268
1085	12.92542	77.64269
1086	12.92549	77.64270
1087	12.92557	77.64271
1088	12.92563	77.64272
1089	12.92569	77.64272
1090	12.92575	77.64273
1091	12.92581	77.64274
1092	12.92587	77.64276
1093	12.92593	77.64277
1094	12.92598	77.64278
1095	12.92605	77.64280
1096	12.92612	77.64281
1097	12.92618	77.64283
1098	12.92626	77.64285
1099	12.92632	77.64286
1100	12.92639	77.64288
1101	12.92646	77.64291
1102	12.92653	77.64293
1103	12.92658	77.64295
1104	12.92664	77.64298
1105	12.92670	77.64301
1106	12.92677	77.64303
1107	12.92684	77.64307
1108	12.92690	77.64308
1109	12.92696	77.64310
1110	12.92702	77.64311
1111	12.92707	77.64313
1112	12.92714	77.64313
1113	12.92721	77.64315
1114	12.92727	77.64317
1115	12.92734	77.64318
1116	12.92739	77.64320
1117	12.92749	77.64322
1118	12.92758	77.64325
1119	12.92764	77.64327
1120	12.92772	77.64327
1121	12.92772	77.64321
1122	12.92771	77.64315
1123	12.92770	77.64309
1124	12.92769	77.64303
1125	12.92767	77.64298
1126	12.92765	77.64290
1127	12.92764	77.64283
1128	12.92764	77.64276
1129	12.92764	77.64269
1130	12.92765	77.64262
1131	12.92766	77.64255
1132	12.92767	77.64249
1133	12.92768	77.64242
1134	12.92769	77.64235
1135	12.92769	77.64229
1136	12.92769	77.64223
1137	12.92769	77.64214
1138	12.92770	77.64208
1139	12.92772	77.64202
1140	12.92774	77.64195
1141	12.92776	77.64188
1142	12.92777	77.64181
1143	12.92779	77.64174
1144	12.92781	77.64168
1145	12.92783	77.64161
1146	12.92785	77.64154
1147	12.92786	77.64147
1148	12.92789	77.64141
1149	12.92792	77.64136
1150	12.92796	77.64129
1151	12.92799	77.64123
1152	12.92801	77.64117
1153	12.92804	77.64111
1154	12.92807	77.64105
1155	12.92809	77.64100
1156	12.92814	77.64093
1157	12.92817	77.64087
1158	12.92821	77.64082
1159	12.92826	77.64077
1160	12.92830	77.64069
1161	12.92835	77.64064
1162	12.92839	77.64056
1163	12.92843	77.64049
1164	12.92845	77.64042
1165	12.92848	77.64036
1166	12.92850	77.64030
1167	12.92853	77.64025
1168	12.92857	77.64017
1169	12.92860	77.64011
1170	12.92864	77.64005
1171	12.92867	77.63998
1172	12.92872	77.63990
1173	12.92876	77.63982
1174	12.92881	77.63974
1175	12.92884	77.63968
1176	12.92886	77.63960
1177	12.92886	77.63953
1178	12.92886	77.63946
1179	12.92886	77.63938
1180	12.92886	77.63932
1181	12.92885	77.63925
1182	12.92882	77.63918
1183	12.92879	77.63912
1184	12.92876	77.63905
1185	12.92871	77.63898
1186	12.92864	77.63892
1187	12.92858	77.63887
1188	12.92850	77.63881
1189	12.92844	77.63875
1190	12.92838	77.63871
1191	12.92830	77.63865
1192	12.92824	77.63861
1193	12.92817	77.63856
1194	12.92810	77.63852
1195	12.92805	77.63848
1196	12.92799	77.63844
1197	12.92794	77.63841
1198	12.92786	77.63837
1199	12.92779	77.63832
1200	12.92774	77.63830
1201	12.92768	77.63828
1202	12.92763	77.63825
1203	12.92758	77.63822
1204	12.92750	77.63818
1205	12.92743	77.63815
1206	12.92736	77.63811
1207	12.92728	77.63808
1208	12.92722	77.63803
1209	12.92718	77.63796
1210	12.92715	77.63788
1211	12.92716	77.63782
1212	12.92716	77.63776
1213	12.92716	77.63769
1214	12.92716	77.63763
1215	12.92717	77.63757
1216	12.92720	77.63751
1217	12.92723	77.63745
1218	12.92726	77.63739
1219	12.92729	77.63731
1220	12.92732	77.63725
1221	12.92734	77.63720
1222	12.92736	77.63713
1223	12.92738	77.63706
1224	12.92742	77.63700
1225	12.92747	77.63694
1226	12.92753	77.63686
1227	12.92758	77.63679
1228	12.92764	77.63673
1229	12.92772	77.63667
1230	12.92779	77.63661
1231	12.92785	77.63657
1232	12.92790	77.63653
1233	12.92796	77.63649
1234	12.92802	77.63644
1235	12.92809	77.63638
1236	12.92814	77.63634
1237	12.92820	77.63626
1238	12.92825	77.63621
1239	12.92832	77.63614
1240	12.92838	77.63607
1241	12.92842	77.63602
1242	12.92847	77.63596
1243	12.92854	77.63589
1244	12.92858	77.63583
1245	12.92864	77.63577
1246	12.92869	77.63570
1247	12.92875	77.63562
1248	12.92879	77.63557
1249	12.92885	77.63550
1250	12.92889	77.63543
1251	12.92894	77.63537
1252	12.92902	77.63530
1253	12.92906	77.63524
1254	12.92913	77.63517
1255	12.92918	77.63514
1256	12.92922	77.63508
