Rank	Latitude	Longitude
1	12.97390	77.67027
2	12.97388	77.67032
3	12.97386	77.67038
4	12.97384	77.67044
5	12.97383	77.67049
6	12.97381	77.67055
7	12.97379	77.67060
8	12.97378	77.67066
9	12.97376	77.67072
10	12.97373	77.67078
11	12.97371	77.67084
12	12.97368	77.67090
13	12.97366	77.67095
14	12.97363	77.67101
15	12.97361	77.67106
16	12.97359	77.67111
17	12.97357	77.67116
18	12.97355	77.67123
19	12.97353	77.67129
20	12.97351	77.67134
21	12.97350	77.67139
22	12.97348	77.67146
23	12.97346	77.67152
24	12.97345	77.67158
25	12.97343	77.67163
26	12.97342	77.67169
27	12.97340	77.67174
28	12.97338	77.67180
29	12.97336	77.67185
30	12.97333	77.67192
31	12.97331	77.67197
32	12.97329	77.67203
33	12.97327	77.67208
34	12.97325	77.67213
35	12.97323	77.67218
36	12.97322	77.67224
37	12.97320	77.67230
38	12.97318	77.67236
39	12.97317	77.67241
40	12.97314	77.67247
41	12.97312	77.67252
42	12.97309	77.67257
43	12.97306	77.67263
44	12.97305	77.67268
45	12.97303	77.67274
46	12.97302	77.67280
47	12.97300	77.67286
48	12.97297	77.67291
49	12.97295	77.67297
50	12.97293	77.67303
51	12.97291	77.67309
52	12.97289	77.67314
53	12.97288	77.67319
54	12.97287	77.67325
55	12.97285	77.67331
56	12.97284	77.67336
57	12.97282	77.67343
58	12.97280	77.67349
59	12.97279	77.67355
60	12.97277	77.67361
61	12.97275	77.67367
62	12.97274	77.67373
63	12.97271	77.67379
64	12.97269	77.67384
65	12.97267	77.67391
66	12.97265	77.67397
67	12.97263	77.67403
68	12.97262	77.67409
69	12.97260	77.67414
70	12.97258	77.67420
71	12.97257	77.67425
72	12.97255	77.67432
73	12.97253	77.67438
74	12.97251	77.67443
75	12.97248	77.67449
76	12.97246	77.67454
77	12.97244	77.67460
78	12.97243	77.67466
79	12.97241	77.67472
80	12.97239	77.67477
81	12.97237	77.67483
82	12.97236	77.67489
83	12.97234	77.67495
84	12.97232	77.67500
85	12.97230	77.67506
86	12.97227	77.67512
87	12.97224	77.67518
88	12.97222	77.67523
89	12.97220	77.67528
90	12.97218	77.67535
91	12.97216	77.67540
92	12.97214	77.67546
93	12.97213	77.67551
94	12.97211	77.67557
95	12.97210	77.67562
96	12.97208	77.67568
97	12.97206	77.67575
98	12.97203	77.67580
99	12.97200	77.67586
100	12.97198	77.67592
101	12.97197	77.67597
102	12.97196	77.67602
103	12.97194	77.67608
104	12.97193	77.67613
105	12.97192	77.67619
106	12.97191	77.67624
107	12.97189	77.67629
108	12.97188	77.67635
109	12.97186	77.67641
110	12.97185	77.67648
111	12.97185	77.67653
112	12.97184	77.67659
113	12.97183	77.67665
114	12.97182	77.67670
115	12.97181	77.67676
116	12.97180	77.67682
117	12.97178	77.67687
118	12.97177	77.67693
119	12.97175	77.67700
120	12.97174	77.67706
121	12.97173	77.67712
122	12.97172	77.67719
123	12.97171	77.67724
124	12.97170	77.67731
125	12.97169	77.67737
126	12.97168	77.67742
127	12.97166	77.67748
128	12.97165	77.67753
129	12.97164	77.67760
130	12.97163	77.67765
131	12.97161	77.67770
132	12.97159	77.67776
133	12.97158	77.67782
134	12.97157	77.67788
135	12.97156	77.67793
136	12.97154	77.67798
137	12.97153	77.67804
138	12.97152	77.67811
139	12.97150	77.67816
140	12.97148	77.67822
141	12.97147	77.67828
142	12.97146	77.67834
143	12.97145	77.67840
144	12.97143	77.67845
145	12.97143	77.67850
146	12.97142	77.67856
147	12.97141	77.67861
148	12.97141	77.67867
149	12.97139	77.67873
150	12.97139	77.67880
151	12.97137	77.67887
152	12.97137	77.67892
153	12.97136	77.67898
154	12.97135	77.67903
155	12.97134	77.67908
156	12.97132	77.67913
157	12.97133	77.67918
158	12.97139	77.67921
159	12.97146	77.67922
160	12.97152	77.67924
161	12.97157	77.67925
162	12.97163	77.67926
163	12.97170	77.67927
164	12.97175	77.67928
165	12.97181	77.67929
166	12.97187	77.67931
167	12.97192	77.67933
168	12.97198	77.67934
169	12.97203	77.67936
170	12.97210	77.67937
171	12.97217	77.67939
172	12.97222	77.67940
173	12.97227	77.67941
174	12.97233	77.67943
175	12.97239	77.67946
176	12.97245	77.67947
177	12.97250	77.67950
178	12.97256	77.67954
179	12.97261	77.67957
180	12.97268	77.67960
181	12.97273	77.67961
182	12.97278	77.67962
183	12.97284	77.67963
184	12.97289	77.67964
185	12.97295	77.67966
186	12.97301	77.67968
187	12.97308	77.67970
188	12.97314	77.67972
189	12.97319	77.67975
190	12.97325	77.67977
191	12.97330	77.67978
192	12.97336	77.67980
193	12.97341	77.67982
194	12.97346	77.67983
195	12.97351	77.67985
196	12.97358	77.67987
197	12.97363	77.67989
198	12.97370	77.67991
199	12.97377	77.67993
200	12.97383	77.67994
201	12.97389	77.67997
202	12.97395	77.67998
203	12.97401	77.68000
204	12.97407	77.68003
205	12.97413	77.68005
206	12.97419	77.68008
207	12.97425	77.68013
208	12.97430	77.68016
209	12.97436	77.68019
210	12.97441	77.68020
211	12.97446	77.68023
212	12.97452	77.68027
213	12.97458	77.68031
214	12.97463	77.68034
215	12.97468	77.68037
216	12.97474	77.68040
217	12.97479	77.68042
218	12.97485	77.68044
219	12.97491	77.68046
220	12.97497	77.68048
221	12.97502	77.68049
222	12.97509	77.68050
223	12.97514	77.68051
224	12.97520	77.68052
225	12.97526	77.68052
226	12.97531	77.68052
227	12.97537	77.68051
228	12.97542	77.68049
229	12.97548	77.68047
230	12.97554	77.68046
231	12.97560	77.68044
232	12.97565	77.68043
233	12.97571	77.68042
234	12.97577	77.68042
235	12.97583	77.68041
236	12.97589	77.68041
237	12.97595	77.68039
238	12.97601	77.68039
239	12.97607	77.68038
240	12.97612	77.68037
241	12.97619	77.68037
242	12.97624	77.68037
243	12.97630	77.68036
244	12.97637	77.68036
245	12.97643	77.68036
246	12.97649	77.68036
247	12.97655	77.68036
248	12.97661	77.68037
249	12.97666	77.68039
250	12.97672	77.68041
251	12.97677	77.68042
252	12.97683	77.68044
253	12.97690	77.68046
254	12.97696	77.68047
255	12.97701	77.68049
256	12.97706	77.68050
257	12.97712	77.68052
258	12.97718	77.68055
259	12.97725	77.68056
260	12.97731	77.68057
261	12.97737	77.68057
262	12.97744	77.68058
263	12.97750	77.68060
264	12.97756	77.68062
265	12.97762	77.68062
266	12.97767	77.68063
267	12.97772	77.68065
268	12.97778	77.68066
269	12.97783	77.68067
270	12.97790	77.68068
271	12.97796	77.68069
272	12.97801	77.68071
273	12.97807	77.68072
274	12.97813	77.68073
275	12.97819	77.68075
276	12.97824	77.68076
277	12.97830	77.68078
278	12.97836	77.68079
279	12.97842	77.68081
280	12.97848	77.68082
281	12.97855	77.68083
282	12.97860	77.68084
283	12.97866	77.68085
284	12.97872	77.68086
285	12.97878	77.68087
286	12.97883	77.68089
287	12.97888	77.68089
288	12.97895	77.68090
289	12.97901	77.68091
290	12.97906	77.68093
291	12.97912	77.68095
292	12.97917	77.68096
293	12.97923	77.68098
294	12.97928	77.68100
295	12.97934	77.68101
296	12.97940	77.68100
297	12.97946	77.68100
298	12.97951	77.68101
299	12.97957	77.68103
300	12.97963	77.68106
301	12.97969	77.68108
302	12.97974	77.68111
303	12.97980	77.68112
304	12.97985	77.68113
305	12.97992	77.68115
306	12.97998	77.68117
307	12.98004	77.68119
308	12.98010	77.68121
309	12.98016	77.68123
310	12.98022	77.68124
311	12.98028	77.68126
312	12.98034	77.68128
313	12.98040	77.68130
314	12.98046	77.68131
315	12.98052	77.68133
316	12.98058	77.68135
317	12.98064	77.68138
318	12.98069	77.68141
319	12.98075	77.68142
320	12.98081	77.68144
321	12.98087	77.68146
322	12.98092	77.68147
323	12.98098	77.68149
324	12.98104	77.68150
325	12.98109	77.68151
326	12.98116	77.68152
327	12.98122	77.68151
328	12.98128	77.68150
329	12.98134	77.68149
330	12.98139	77.68148
331	12.98145	77.68148
332	12.98150	77.68146
333	12.98156	77.68145
334	12.98163	77.68142
335	12.98168	77.68137
336	12.98174	77.68133
337	12.98179	77.68129
338	12.98185	77.68124
339	12.98190	77.68120
340	12.98195	77.68116
341	12.98200	77.68110
342	12.98205	77.68104
343	12.98211	77.68099
344	12.98215	77.68093
345	12.98220	77.68088
346	12.98226	77.68082
347	12.98229	77.68076
348	12.98234	77.68071
349	12.98237	77.68066
350	12.98241	77.68060
351	12.98246	77.68055
352	12.98250	77.68050
353	12.98255	77.68044
354	12.98260	77.68039
355	12.98264	77.68033
356	12.98267	77.68027
357	12.98270	77.68021
358	12.98273	77.68014
359	12.98276	77.68009
360	12.98279	77.68003
361	12.98282	77.67997
362	12.98286	77.67991
363	12.98289	77.67986
364	12.98291	77.67980
365	12.98294	77.67975
366	12.98297	77.67970
367	12.98300	77.67964
368	12.98303	77.67958
369	12.98306	77.67953
370	12.98309	77.67947
371	12.98312	77.67942
372	12.98316	77.67936
373	12.98320	77.67931
374	12.98322	77.67925
375	12.98325	77.67920
376	12.98327	77.67913
377	12.98330	77.67908
378	12.98332	77.67903
379	12.98336	77.67897
380	12.98340	77.67892
381	12.98343	77.67887
382	12.98345	77.67882
383	12.98348	77.67876
384	12.98351	77.67871
385	12.98355	77.67865
386	12.98358	77.67860
387	12.98361	77.67855
388	12.98364	77.67850
389	12.98367	77.67843
390	12.98370	77.67838
391	12.98373	77.67833
392	12.98376	77.67827
393	12.98379	77.67821
394	12.98382	77.67815
395	12.98385	77.67810
396	12.98388	77.67804
397	12.98391	77.67799
398	12.98393	77.67793
399	12.98397	77.67788
400	12.98400	77.67782
401	12.98404	77.67777
402	12.98407	77.67771
403	12.98410	77.67766
404	12.98413	77.67760
405	12.98416	77.67755
406	12.98419	77.67749
407	12.98422	77.67744
408	12.98425	77.67738
409	12.98428	77.67733
410	12.98431	77.67727
411	12.98434	77.67722
412	12.98438	77.67716
413	12.98442	77.67711
414	12.98447	77.67704
415	12.98450	77.67698
416	12.98452	77.67693
417	12.98454	77.67686
418	12.98456	77.67681
419	12.98459	77.67676
420	12.98462	77.67670
421	12.98465	77.67664
422	12.98468	77.67658
423	12.98472	77.67653
424	12.98476	77.67647
425	12.98479	77.67641
426	12.98482	77.67635
427	12.98485	77.67629
428	12.98488	77.67624
429	12.98491	77.67619
430	12.98494	77.67613
431	12.98497	77.67608
432	12.98500	77.67602
433	12.98503	77.67597
434	12.98506	77.67591
435	12.98509	77.67585
436	12.98514	77.67579
437	12.98518	77.67573
438	12.98522	77.67568
439	12.98527	77.67563
440	12.98529	77.67557
441	12.98530	77.67552
442	12.98530	77.67545
443	12.98530	77.67539
444	12.98531	77.67534
445	12.98531	77.67528
446	12.98532	77.67522
447	12.98532	77.67515
448	12.98533	77.67509
449	12.98534	77.67504
450	12.98535	77.67497
451	12.98535	77.67492
452	12.98536	77.67487
453	12.98537	77.67482
454	12.98538	77.67476
455	12.98539	77.67470
456	12.98539	77.67465
457	12.98535	77.67460
458	12.98531	77.67454
459	12.98527	77.67449
460	12.98524	77.67443
461	12.98521	77.67438
462	12.98518	77.67432
463	12.98515	77.67426
464	12.98512	77.67420
465	12.98508	77.67414
466	12.98505	77.67408
467	12.98502	77.67403
468	12.98498	77.67398
469	12.98496	77.67392
470	12.98494	77.67386
471	12.98492	77.67380
472	12.98490	77.67374
473	12.98488	77.67368
474	12.98486	77.67362
475	12.98484	77.67357
476	12.98482	77.67351
477	12.98481	77.67345
478	12.98479	77.67340
479	12.98474	77.67334
480	12.98472	77.67328
481	12.98470	77.67323
482	12.98468	77.67316
483	12.98467	77.67311
484	12.98465	77.67306
485	12.98464	77.67301
486	12.98462	77.67294
487	12.98460	77.67289
488	12.98457	77.67282
489	12.98456	77.67277
490	12.98454	77.67271
491	12.98453	77.67265
492	12.98451	77.67260
493	12.98453	77.67253
494	12.98454	77.67248
495	12.98456	77.67243
496	12.98457	77.67237
497	12.98459	77.67231
498	12.98460	77.67226
499	12.98462	77.67221
500	12.98464	77.67215
501	12.98465	77.67210
502	12.98465	77.67204
503	12.98466	77.67199
504	12.98468	77.67193
505	12.98470	77.67187
506	12.98471	77.67181
507	12.98472	77.67176
508	12.98474	77.67170
509	12.98475	77.67164
510	12.98477	77.67159
511	12.98478	77.67153
512	12.98479	77.67148
513	12.98479	77.67142
514	12.98480	77.67136
515	12.98480	77.67130
516	12.98480	77.67125
517	12.98480	77.67118
518	12.98481	77.67113
519	12.98481	77.67107
520	12.98482	77.67101
521	12.98482	77.67095
522	12.98482	77.67088
523	12.98482	77.67081
524	12.98481	77.67075
525	12.98481	77.67068
526	12.98481	77.67062
527	12.98480	77.67057
528	12.98480	77.67051
529	12.98479	77.67045
530	12.98477	77.67039
531	12.98476	77.67034
532	12.98474	77.67027
533	12.98472	77.67021
534	12.98470	77.67015
535	12.98469	77.67010
536	12.98467	77.67005
537	12.98466	77.66999
538	12.98464	77.66994
539	12.98462	77.66989
540	12.98460	77.66983
541	12.98457	77.66977
542	12.98456	77.66972
543	12.98455	77.66967
544	12.98453	77.66960
545	12.98450	77.66955
546	12.98446	77.66949
547	12.98444	77.66944
548	12.98440	77.66938
549	12.98436	77.66931
550	12.98433	77.66926
551	12.98430	77.66920
552	12.98426	77.66915
553	12.98422	77.66909
554	12.98425	77.66904
555	12.98431	77.66899
556	12.98436	77.66895
557	12.98442	77.66891
558	12.98448	77.66889
559	12.98454	77.66886
560	12.98458	77.66880
561	12.98460	77.66875
562	12.98461	77.66870
563	12.98464	77.66864
564	12.98470	77.66859
565	12.98475	77.66856
566	12.98482	77.66855
567	12.98488	77.66854
568	12.98493	77.66855
569	12.98499	77.66853
570	12.98504	77.66852
571	12.98510	77.66852
572	12.98516	77.66851
573	12.98522	77.66850
574	12.98528	77.66850
575	12.98534	77.66850
576	12.98540	77.66849
577	12.98546	77.66849
578	12.98552	77.66847
579	12.98557	77.66847
580	12.98564	77.66847
581	12.98570	77.66847
582	12.98577	77.66848
583	12.98583	77.66848
584	12.98589	77.66847
585	12.98595	77.66847
586	12.98601	77.66847
587	12.98608	77.66847
588	12.98614	77.66846
589	12.98619	77.66845
590	12.98626	77.66845
591	12.98631	77.66844
592	12.98637	77.66843
593	12.98643	77.66842
594	12.98649	77.66842
595	12.98654	77.66842
596	12.98660	77.66842
597	12.98665	77.66842
598	12.98671	77.66842
599	12.98677	77.66843
600	12.98683	77.66844
601	12.98689	77.66844
602	12.98694	77.66844
603	12.98700	77.66844
604	12.98705	77.66844
605	12.98712	77.66844
606	12.98719	77.66844
607	12.98725	77.66844
608	12.98731	77.66844
609	12.98737	77.66844
610	12.98743	77.66844
611	12.98749	77.66845
612	12.98755	77.66845
613	12.98762	77.66845
614	12.98768	77.66846
615	12.98773	77.66848
616	12.98779	77.66850
617	12.98785	77.66854
618	12.98791	77.66859
619	12.98796	77.66864
620	12.98802	77.66870
621	12.98808	77.66876
622	12.98812	77.66881
623	12.98815	77.66886
624	12.98820	77.66892
625	12.98823	77.66897
626	12.98827	77.66902
627	12.98832	77.66908
628	12.98837	77.66913
629	12.98842	77.66918
630	12.98847	77.66923
631	12.98853	77.66927
632	12.98859	77.66933
633	12.98865	77.66938
634	12.98871	77.66943
635	12.98876	77.66946
636	12.98881	77.66941
637	12.98883	77.66935
638	12.98885	77.66930
639	12.98888	77.66924
640	12.98890	77.66919
641	12.98894	77.66913
642	12.98896	77.66908
643	12.98899	77.66902
644	12.98903	77.66896
645	12.98906	77.66890
646	12.98909	77.66884
647	12.98913	77.66878
648	12.98917	77.66872
649	12.98920	77.66867
650	12.98923	77.66861
651	12.98928	77.66856
652	12.98932	77.66850
653	12.98936	77.66845
654	12.98941	77.66840
655	12.98945	77.66835
656	12.98949	77.66830
657	12.98952	77.66824
658	12.98955	77.66818
659	12.98958	77.66813
660	12.98961	77.66808
661	12.98964	77.66802
662	12.98968	77.66796
663	12.98973	77.66791
664	12.98978	77.66785
665	12.98983	77.66780
666	12.98987	77.66773
667	12.98992	77.66768
668	12.98997	77.66763
669	12.99001	77.66757
670	12.99006	77.66751
671	12.99010	77.66746
672	12.99015	77.66740
673	12.99020	77.66734
674	12.99024	77.66729
675	12.99028	77.66724
676	12.99032	77.66719
677	12.99036	77.66714
678	12.99041	77.66709
679	12.99046	77.66705
680	12.99052	77.66700
681	12.99058	77.66696
682	12.99064	77.66691
683	12.99069	77.66685
684	12.99074	77.66680
685	12.99079	77.66675
686	12.99085	77.66670
687	12.99090	77.66666
688	12.99096	77.66662
689	12.99102	77.66658
690	12.99108	77.66654
691	12.99113	77.66648
692	12.99119	77.66644
693	12.99125	77.66639
694	12.99130	77.66635
695	12.99136	77.66632
696	12.99141	77.66629
697	12.99146	77.66624
698	12.99152	77.66619
699	12.99158	77.66617
700	12.99163	77.66614
701	12.99168	77.66610
702	12.99173	77.66607
703	12.99180	77.66602
704	12.99185	77.66599
705	12.99190	77.66596
706	12.99196	77.66593
707	12.99202	77.66590
708	12.99208	77.66586
709	12.99213	77.66583
710	12.99218	77.66580
711	12.99224	77.66577
712	12.99229	77.66574
713	12.99235	77.66571
714	12.99241	77.66567
715	12.99246	77.66564
716	12.99252	77.66562
717	12.99258	77.66558
718	12.99263	77.66554
719	12.99269	77.66550
720	12.99274	77.66547
721	12.99279	77.66544
722	12.99285	77.66541
723	12.99291	77.66536
724	12.99297	77.66532
725	12.99303	77.66529
726	12.99308	77.66526
727	12.99314	77.66523
728	12.99314	77.66516
729	12.99313	77.66511
730	12.99310	77.66504
731	12.99306	77.66497
732	12.99302	77.66490
733	12.99299	77.66482
734	12.99296	77.66477
735	12.99293	77.66472
736	12.99289	77.66465
737	12.99285	77.66458
738	12.99283	77.66453
739	12.99279	77.66445
740	12.99276	77.66440
741	12.99273	77.66433
742	12.99271	77.66427
743	12.99267	77.66418
744	12.99264	77.66413
745	12.99261	77.66407
746	12.99258	77.66400
747	12.99255	77.66393
748	12.99252	77.66386
749	12.99250	77.66379
750	12.99247	77.66373
751	12.99244	77.66367
752	12.99242	77.66361
753	12.99239	77.66354
754	12.99237	77.66348
755	12.99233	77.66342
756	12.99230	77.66335
757	12.99228	77.66330
758	12.99225	77.66324
759	12.99222	77.66318
760	12.99219	77.66313
761	12.99216	77.66307
762	12.99213	77.66300
763	12.99209	77.66294
764	12.99206	77.66287
765	12.99202	77.66280
766	12.99200	77.66274
767	12.99196	77.66267
768	12.99193	77.66260
769	12.99189	77.66253
770	12.99188	77.66248
771	12.99185	77.66241
772	12.99182	77.66236
773	12.99180	77.66228
774	12.99177	77.66221
775	12.99175	77.66214
776	12.99172	77.66208
777	12.99168	77.66200
778	12.99165	77.66193
779	12.99163	77.66188
780	12.99158	77.66184
781	12.99155	77.66177
782	12.99152	77.66172
783	12.99148	77.66165
784	12.99146	77.66159
785	12.99143	77.66154
786	12.99140	77.66147
787	12.99137	77.66142
788	12.99135	77.66136
789	12.99131	77.66131
790	12.99129	77.66125
791	12.99125	77.66118
792	12.99122	77.66112
793	12.99120	77.66106
794	12.99117	77.66101
795	12.99114	77.66094
796	12.99110	77.66087
797	12.99107	77.66081
798	12.99104	77.66075
799	12.99101	77.66069
800	12.99098	77.66063
801	12.99095	77.66057
802	12.99092	77.66051
803	12.99088	77.66043
804	12.99086	77.66038
805	12.99081	77.66032
806	12.99076	77.66025
807	12.99072	77.66019
808	12.99068	77.66013
809	12.99065	77.66007
810	12.99063	77.66000
811	12.99061	77.65995
812	12.99058	77.65989
813	12.99056	77.65983
814	12.99054	77.65978
815	12.99050	77.65971
816	12.99047	77.65964
817	12.99045	77.65956
818	12.99041	77.65949
819	12.99039	77.65944
820	12.99036	77.65938
821	12.99035	77.65933
822	12.99031	77.65926
823	12.99026	77.65919
824	12.99022	77.65914
825	12.99019	77.65908
826	12.99016	77.65901
827	12.99011	77.65893
828	12.99008	77.65886
829	12.99005	77.65881
830	12.99002	77.65875
831	12.98999	77.65868
832	12.98996	77.65860
833	12.98995	77.65854
834	12.98992	77.65847
835	12.98990	77.65841
836	12.98987	77.65834
837	12.98985	77.65829
838	12.98981	77.65823
839	12.98978	77.65817
840	12.98975	77.65812
841	12.98973	77.65805
842	12.98969	77.65800
843	12.98965	77.65793
844	12.98961	77.65784
845	12.98958	77.65778
846	12.98955	77.65771
847	12.98950	77.65764
848	12.98946	77.65756
849	12.98943	77.65748
850	12.98938	77.65740
851	12.98935	77.65733
852	12.98933	77.65728
853	12.98931	77.65722
854	12.98928	77.65715
855	12.98925	77.65708
856	12.98921	77.65700
857	12.98917	77.65693
858	12.98913	77.65686
859	12.98909	77.65679
860	12.98906	77.65672
861	12.98901	77.65666
862	12.98896	77.65658
863	12.98891	77.65651
864	12.98888	77.65646
865	12.98884	77.65638
866	12.98880	77.65631
867	12.98877	77.65626
868	12.98875	77.65620
869	12.98873	77.65613
870	12.98870	77.65607
871	12.98867	77.65600
872	12.98865	77.65595
873	12.98863	77.65589
874	12.98860	77.65582
875	12.98859	77.65576
876	12.98856	77.65568
877	12.98853	77.65561
878	12.98849	77.65555
879	12.98846	77.65548
880	12.98844	77.65543
881	12.98842	77.65537
882	12.98838	77.65529
883	12.98835	77.65524
884	12.98833	77.65517
885	12.98829	77.65511
886	12.98826	77.65504
887	12.98824	77.65497
888	12.98820	77.65489
889	12.98818	77.65484
890	12.98815	77.65477
891	12.98812	77.65471
892	12.98809	77.65465
893	12.98808	77.65459
894	12.98806	77.65453
895	12.98805	77.65448
896	12.98800	77.65441
897	12.98796	77.65434
898	12.98792	77.65427
899	12.98788	77.65420
900	12.98784	77.65413
901	12.98779	77.65406
902	12.98776	77.65399
903	12.98772	77.65392
904	12.98768	77.65385
905	12.98764	77.65378
906	12.98759	77.65370
907	12.98757	77.65364
908	12.98753	77.65358
909	12.98749	77.65351
910	12.98745	77.65342
911	12.98741	77.65335
912	12.98737	77.65327
913	12.98734	77.65321
914	12.98733	77.65315
915	12.98731	77.65309
916	12.98727	77.65302
917	12.98725	77.65296
918	12.98722	77.65291
919	12.98720	77.65284
920	12.98718	77.65276
921	12.98717	77.65271
922	12.98715	77.65265
923	12.98714	77.65260
924	12.98711	77.65252
925	12.98708	77.65246
926	12.98702	77.65239
927	12.98697	77.65232
928	12.98694	77.65226
929	12.98691	77.65219
930	12.98689	77.65214
931	12.98686	77.65207
932	12.98682	77.65200
933	12.98680	77.65194
934	12.98676	77.65188
935	12.98673	77.65180
936	12.98671	77.65174
937	12.98669	77.65169
938	12.98667	77.65163
939	12.98664	77.65155
940	12.98662	77.65149
941	12.98659	77.65143
942	12.98656	77.65136
943	12.98652	77.65129
944	12.98648	77.65122
945	12.98644	77.65115
946	12.98642	77.65109
947	12.98638	77.65102
948	12.98636	77.65097
949	12.98633	77.65090
950	12.98630	77.65081
951	12.98626	77.65074
952	12.98623	77.65066
953	12.98619	77.65059
954	12.98616	77.65054
955	12.98612	77.65047
956	12.98608	77.65040
957	12.98604	77.65032
958	12.98601	77.65025
959	12.98598	77.65020
960	12.98595	77.65013
961	12.98592	77.65005
962	12.98588	77.64999
963	12.98585	77.64992
964	12.98582	77.64985
965	12.98578	77.64978
966	12.98574	77.64971
967	12.98571	77.64964
968	12.98568	77.64957
969	12.98564	77.64950
970	12.98561	77.64944
971	12.98558	77.64936
972	12.98556	77.64931
973	12.98554	77.64925
974	12.98552	77.64917
975	12.98548	77.64910
976	12.98545	77.64905
977	12.98537	77.64905
978	12.98531	77.64905
979	12.98522	77.64905
980	12.98514	77.64906
981	12.98507	77.64907
982	12.98501	77.64909
983	12.98495	77.64909
984	12.98488	77.64911
985	12.98479	77.64912
986	12.98474	77.64913
987	12.98466	77.64914
988	12.98459	77.64915
989	12.98452	77.64918
990	12.98446	77.64920
991	12.98439	77.64922
992	12.98434	77.64923
993	12.98429	77.64924
994	12.98423	77.64926
995	12.98415	77.64928
996	12.98410	77.64931
997	12.98404	77.64933
998	12.98398	77.64935
999	12.98393	77.64937
1000	12.98387	77.64940
1001	12.98381	77.64943
1002	12.98374	77.64947
1003	12.98368	77.64950
1004	12.98361	77.64957
1005	12.98354	77.64961
1006	12.98348	77.64965
1007	12.98342	77.64968
1008	12.98336	77.64971
1009	12.98330	77.64975
1010	12.98324	77.64977
1011	12.98318	77.64980
1012	12.98313	77.64984
1013	12.98306	77.64987
1014	12.98298	77.64992
1015	12.98293	77.64995
1016	12.98286	77.64999
1017	12.98281	77.65002
1018	12.98275	77.65005
1019	12.98269	77.65010
1020	12.98262	77.65015
1021	12.98256	77.65019
1022	12.98251	77.65021
1023	12.98244	77.65026
1024	12.98239	77.65029
1025	12.98233	77.65033
1026	12.98226	77.65037
1027	12.98221	77.65041
1028	12.98215	77.65046
1029	12.98209	77.65051
1030	12.98203	77.65054
1031	12.98195	77.65058
1032	12.98189	77.65062
1033	12.98183	77.65066
1034	12.98176	77.65070
1035	12.98169	77.65074
1036	12.98163	77.65078
1037	12.98157	77.65081
1038	12.98151	77.65084
1039	12.98144	77.65088
1040	12.98139	77.65089
1041	12.98133	77.65093
1042	12.98128	77.65096
1043	12.98122	77.65100
1044	12.98114	77.65104
1045	12.98107	77.65110
1046	12.98102	77.65115
1047	12.98096	77.65118
1048	12.98090	77.65122
1049	12.98084	77.65124
1050	12.98078	77.65127
1051	12.98070	77.65133
1052	12.98064	77.65135
1053	12.98058	77.65138
1054	12.98052	77.65143
1055	12.98045	77.65146
1056	12.98039	77.65149
1057	12.98033	77.65152
1058	12.98026	77.65157
1059	12.98019	77.65163
1060	12.98013	77.65167
1061	12.98008	77.65171
1062	12.98003	77.65175
1063	12.97995	77.65181
1064	12.97990	77.65186
1065	12.97983	77.65192
1066	12.97975	77.65198
1067	12.97970	77.65203
1068	12.97964	77.65207
1069	12.97958	77.65212
1070	12.97951	77.65219
1071	12.97945	77.65223
1072	12.97940	77.65228
1073	12.97934	77.65232
1074	12.97929	77.65236
1075	12.97922	77.65242
1076	12.97915	77.65248
1077	12.97910	77.65252
1078	12.97904	77.65257
1079	12.97897	77.65263
1080	12.97891	77.65268
1081	12.97886	77.65272
1082	12.97880	77.65277
1083	12.97875	77.65281
1084	12.97872	77.65287
1085	12.97868	77.65293
1086	12.97861	77.65301
1087	12.97856	77.65307
1088	12.97851	77.65312
1089	12.97843	77.65318
1090	12.97838	77.65323
1091	12.97832	77.65328
1092	12.97825	77.65333
1093	12.97820	77.65338
1094	12.97814	77.65343
1095	12.97809	77.65347
1096	12.97802	77.65352
1097	12.97795	77.65359
1098	12.97790	77.65363
1099	12.97784	77.65367
1100	12.97777	77.65374
1101	12.97772	77.65381
1102	12.97776	77.65388
1103	12.97779	77.65396
1104	12.97783	77.65403
1105	12.97784	77.65412
1106	12.97784	77.65419
1107	12.97784	77.65426
1108	12.97787	77.65432
1109	12.97791	77.65438
1110	12.97796	77.65443
1111	12.97799	77.65450
1112	12.97804	77.65456
1113	12.97810	77.65463
1114	12.97814	77.65468
1115	12.97818	77.65474
1116	12.97821	77.65480
1117	12.97824	77.65488
1118	12.97826	77.65495
1119	12.97828	77.65501
1120	12.97831	77.65507
1121	12.97833	77.65513
1122	12.97834	77.65518
1123	12.97837	77.65524
1124	12.97838	77.65529
1125	12.97840	77.65535
1126	12.97843	77.65541
1127	12.97846	77.65548
1128	12.97848	77.65553
1129	12.97850	77.65558
1130	12.97853	77.65565
1131	12.97856	77.65571
1132	12.97857	77.65578
1133	12.97860	77.65585
1134	12.97861	77.65591
1135	12.97864	77.65597
1136	12.97867	77.65602
1137	12.97870	77.65609
1138	12.97872	77.65614
1139	12.97875	77.65621
1140	12.97878	77.65626
1141	12.97881	77.65633
1142	12.97886	77.65640
1143	12.97890	77.65648
1144	12.97893	77.65655
1145	12.97897	77.65663
1146	12.97900	77.65669
1147	12.97903	77.65676
1148	12.97907	77.65683
1149	12.97909	77.65689
1150	12.97912	77.65697
1151	12.97915	77.65702
1152	12.97918	77.65709
1153	12.97919	77.65715
1154	12.97920	77.65721
1155	12.97922	77.65727
1156	12.97924	77.65735
1157	12.97927	77.65740
1158	12.97928	77.65745
1159	12.97930	77.65752
1160	12.97932	77.65758
1161	12.97934	77.65764
1162	12.97936	77.65770
1163	12.97939	77.65776
1164	12.97943	77.65783
1165	12.97945	77.65790
1166	12.97948	77.65798
1167	12.97950	77.65803
1168	12.97952	77.65809
1169	12.97953	77.65816
1170	12.97955	77.65821
1171	12.97957	77.65827
1172	12.97959	77.65832
1173	12.97960	77.65838
1174	12.97963	77.65845
1175	12.97964	77.65851
1176	12.97967	77.65857
1177	12.97970	77.65864
1178	12.97972	77.65869
1179	12.97974	77.65877
1180	12.97976	77.65884
1181	12.97978	77.65890
1182	12.97979	77.65895
1183	12.97981	77.65901
1184	12.97984	77.65908
1185	12.97988	77.65915
1186	12.97990	77.65920
1187	12.97993	77.65927
1188	12.97998	77.65933
1189	12.98002	77.65939
1190	12.98008	77.65943
1191	12.98013	77.65946
1192	12.98019	77.65949
1193	12.98025	77.65950
1194	12.98030	77.65952
1195	12.98036	77.65953
1196	12.98042	77.65955
1197	12.98048	77.65957
1198	12.98053	77.65958
1199	12.98061	77.65958
1200	12.98068	77.65960
1201	12.98074	77.65961
1202	12.98081	77.65962
1203	12.98088	77.65962
1204	12.98094	77.65963
1205	12.98100	77.65964
1206	12.98105	77.65965
1207	12.98111	77.65967
1208	12.98117	77.65967
1209	12.98125	77.65968
1210	12.98131	77.65968
1211	12.98136	77.65969
1212	12.98143	77.65970
1213	12.98149	77.65971
1214	12.98156	77.65974
1215	12.98164	77.65975
1216	12.98170	77.65978
1217	12.98177	77.65983
1218	12.98183	77.65988
1219	12.98189	77.65996
1220	12.98194	77.66002
1221	12.98199	77.66009
1222	12.98204	77.66016
1223	12.98206	77.66021
1224	12.98211	77.66028
1225	12.98214	77.66034
1226	12.98217	77.66040
1227	12.98221	77.66046
1228	12.98225	77.66054
1229	12.98229	77.66060
1230	12.98233	77.66067
1231	12.98237	77.66074
1232	12.98241	77.66080
1233	12.98245	77.66086
1234	12.98249	77.66093
1235	12.98253	77.66100
1236	12.98257	77.66106
1237	12.98260	77.66111
1238	12.98263	77.66118
1239	12.98265	77.66125
1240	12.98266	77.66131
1241	12.98267	77.66137
1242	12.98268	77.66143
1243	12.98268	77.66150
1244	12.98268	77.66158
1245	12.98268	77.66164
1246	12.98267	77.66170
1247	12.98265	77.66177
1248	12.98263	77.66183
1249	12.98260	77.66189
1250	12.98257	77.66195
1251	12.98254	77.66200
1252	12.98248	77.66207
1253	12.98241	77.66214
1254	12.98234	77.66219
1255	12.98229	77.66222
1256	12.98224	77.66227
1257	12.98218	77.66231
1258	12.98211	77.66237
1259	12.98205	77.66241
1260	12.98200	77.66246
1261	12.98194	77.66254
1262	12.98191	77.66259
1263	12.98187	77.66266
1264	12.98183	77.66272
1265	12.98181	77.66278
1266	12.98179	77.66285
1267	12.98178	77.66291
1268	12.98178	77.66297
1269	12.98178	77.66304
1270	12.98179	77.66310
1271	12.98179	77.66316
1272	12.98179	77.66322
1273	12.98179	77.66329
1274	12.98179	77.66336
1275	12.98179	77.66342
1276	12.98180	77.66347
1277	12.98181	77.66354
1278	12.98181	77.66360
1279	12.98181	77.66367
1280	12.98182	77.66373
1281	12.98182	77.66378
1282	12.98183	77.66383
1283	12.98184	77.66391
1284	12.98185	77.66398
1285	12.98186	77.66404
1286	12.98188	77.66410
1287	12.98190	77.66416
1288	12.98192	77.66421
1289	12.98194	77.66426
1290	12.98199	77.66433
1291	12.98204	77.66439
1292	12.98209	77.66443
1293	12.98215	77.66447
1294	12.98221	77.66452
1295	12.98225	77.66457
1296	12.98228	77.66464
1297	12.98230	77.66472
1298	12.98232	77.66478
1299	12.98232	77.66484
1300	12.98233	77.66491
1301	12.98232	77.66498
1302	12.98232	77.66504
1303	12.98231	77.66511
1304	12.98230	77.66517
1305	12.98227	77.66523
1306	12.98224	77.66529
1307	12.98218	77.66532
1308	12.98211	77.66534
1309	12.98204	77.66536
1310	12.98199	77.66536
1311	12.98192	77.66535
1312	12.98186	77.66535
1313	12.98180	77.66535
1314	12.98172	77.66534
1315	12.98164	77.66534
1316	12.98157	77.66533
1317	12.98151	77.66533
1318	12.98146	77.66531
1319	12.98140	77.66528
1320	12.98135	77.66536
1321	12.98132	77.66542
1322	12.98128	77.66548
1323	12.98122	77.66555
1324	12.98119	77.66560
1325	12.98114	77.66566
1326	12.98117	77.66572
1327	12.98121	77.66579
1328	12.98123	77.66584
1329	12.98124	77.66589
1330	12.98125	77.66595
1331	12.98126	77.66601
1332	12.98126	77.66607
1333	12.98127	77.66614
1334	12.98128	77.66619
1335	12.98128	77.66625
1336	12.98126	77.66631
1337	12.98125	77.66638
1338	12.98124	77.66644
1339	12.98122	77.66651
1340	12.98119	77.66656
1341	12.98111	77.66663
1342	12.98105	77.66667
1343	12.98100	77.66670
1344	12.98094	77.66674
1345	12.98089	77.66677
1346	12.98083	77.66681
1347	12.98078	77.66683
1348	12.98075	77.66690
1349	12.98075	77.66696
1350	12.98076	77.66702
1351	12.98077	77.66708
1352	12.98078	77.66714
1353	12.98078	77.66720
1354	12.98078	77.66726
1355	12.98082	77.66733
1356	12.98088	77.66734
1357	12.98094	77.66734
1358	12.98096	77.66740
1359	12.98096	77.66747
1360	12.98096	77.66754
1361	12.98096	77.66761
1362	12.98096	77.66768
1363	12.98096	77.66774
1364	12.98096	77.66780
1365	12.98096	77.66787
1366	12.98096	77.66794
1367	12.98095	77.66801
1368	12.98095	77.66806
1369	12.98094	77.66812
1370	12.98094	77.66819
1371	12.98094	77.66824
1372	12.98094	77.66830
1373	12.98094	77.66836
1374	12.98094	77.66843
1375	12.98094	77.66849
1376	12.98094	77.66854
1377	12.98095	77.66860
1378	12.98096	77.66867
1379	12.98096	77.66875
1380	12.98096	77.66881
1381	12.98096	77.66888
1382	12.98096	77.66893
1383	12.98096	77.66898
1384	12.98096	77.66905
1385	12.98096	77.66910
1386	12.98096	77.66916
1387	12.98095	77.66923
1388	12.98094	77.66930
1389	12.98093	77.66937
1390	12.98088	77.66941
1391	12.98081	77.66943
1392	12.98075	77.66947
1393	12.98074	77.66954
1394	12.98073	77.66960
1395	12.98073	77.66967
1396	12.98072	77.66974
1397	12.98072	77.66981
1398	12.98073	77.66986
1399	12.98074	77.66992
1400	12.98074	77.66999
1401	12.98074	77.67005
1402	12.98074	77.67011
1403	12.98068	77.67014
1404	12.98061	77.67016
1405	12.98053	77.67018
1406	12.98046	77.67018
1407	12.98039	77.67018
1408	12.98033	77.67018
1409	12.98026	77.67018
1410	12.98020	77.67018
1411	12.98014	77.67018
1412	12.98008	77.67017
1413	12.97998	77.67015
1414	12.97992	77.67015
1415	12.97987	77.67014
1416	12.97980	77.67013
1417	12.97973	77.67012
1418	12.97964	77.67010
1419	12.97958	77.67010
1420	12.97950	77.67009
1421	12.97943	77.67009
1422	12.97937	77.67009
1423	12.97930	77.67009
1424	12.97925	77.67010
1425	12.97924	77.67016
1426	12.97923	77.67023
1427	12.97922	77.67029
1428	12.97921	77.67036
1429	12.97919	77.67044
1430	12.97916	77.67051
1431	12.97912	77.67057
1432	12.97910	77.67064
1433	12.97905	77.67070
1434	12.97902	77.67076
1435	12.97896	77.67082
1436	12.97890	77.67088
1437	12.97885	77.67093
1438	12.97879	77.67097
1439	12.97871	77.67103
1440	12.97863	77.67109
1441	12.97858	77.67111
1442	12.97850	77.67115
1443	12.97842	77.67119
1444	12.97837	77.67121
1445	12.97832	77.67123
1446	12.97826	77.67125
1447	12.97819	77.67122
1448	12.97814	77.67117
1449	12.97807	77.67111
1450	12.97802	77.67107
1451	12.97794	77.67103
1452	12.97787	77.67101
1453	12.97781	77.67099
1454	12.97776	77.67098
1455	12.97770	77.67097
1456	12.97764	77.67094
1457	12.97758	77.67093
1458	12.97751	77.67091
1459	12.97743	77.67088
1460	12.97738	77.67087
1461	12.97729	77.67086
1462	12.97722	77.67086
1463	12.97716	77.67086
1464	12.97709	77.67086
1465	12.97703	77.67086
1466	12.97697	77.67087
1467	12.97691	77.67088
1468	12.97683	77.67089
1469	12.97677	77.67090
1470	12.97672	77.67092
1471	12.97666	77.67093
1472	12.97660	77.67095
1473	12.97653	77.67099
1474	12.97647	77.67104
1475	12.97639	77.67110
1476	12.97635	77.67116
1477	12.97628	77.67123
1478	12.97621	77.67121
1479	12.97616	77.67117
1480	12.97610	77.67114
1481	12.97605	77.67110
1482	12.97598	77.67108
1483	12.97592	77.67104
1484	12.97586	77.67101
1485	12.97580	77.67098
1486	12.97572	77.67094
1487	12.97567	77.67092
1488	12.97560	77.67089
1489	12.97554	77.67087
1490	12.97547	77.67085
1491	12.97541	77.67084
1492	12.97535	77.67080
1493	12.97528	77.67077
1494	12.97522	77.67074
1495	12.97517	77.67071
1496	12.97511	77.67070
1497	12.97506	77.67068
1498	12.97500	77.67066
1499	12.97495	77.67064
1500	12.97487	77.67062
1501	12.97479	77.67059
1502	12.97472	77.67057
1503	12.97465	77.67055
1504	12.97458	77.67053
1505	12.97452	77.67050
1506	12.97446	77.67047
1507	12.97439	77.67044
1508	12.97433	77.67041
1509	12.97427	77.67039
1510	12.97421	77.67037
1511	12.97415	77.67035
1512	12.97408	77.67032
1513	12.97401	77.67030
1514	12.97396	77.67028
